# T (K) P (bar)
2.400000000000000000e+02 3.071000000000000000e+03
2.425000000000000000e+02 2.969000000000000000e+03
2.450000000000000000e+02 2.863000000000000000e+03
2.475000000000000000e+02 2.753000000000000000e+03
2.500000000000000000e+02 2.639000000000000000e+03
2.525000000000000000e+02 2.523000000000000000e+03
2.550000000000000000e+02 2.405000000000000000e+03
2.575000000000000000e+02 2.287000000000000000e+03
2.600000000000000000e+02 2.169000000000000000e+03
2.625000000000000000e+02 2.053000000000000000e+03
2.650000000000000000e+02 1.942000000000000000e+03
2.675000000000000000e+02 1.839000000000000000e+03
2.700000000000000000e+02 1.744000000000000000e+03
2.725000000000000000e+02 1.654000000000000000e+03
2.750000000000000000e+02 1.564000000000000000e+03
2.775000000000000000e+02 1.469000000000000000e+03
