# From O. Mishima, Liquid-Phase Transition in Water (Springer, 2021)
# Pressure (GPa) Temperature (K)
0.10819253956927496 215.93176723096542
0.12420903589749352 218.397788503138
0.1402390169626753 221.24475359452518
0.15804561212277848 224.2810668674394
0.1776085942723579 226.9353125930587
0.20071806224329833 229.7777827721248
0.21851791503491982 232.62362413543167
0.2380741548160176 235.08739795144368
0.25940026632355495 237.55004803937544
0.2842728636524534 240.2009225807539
0.3073688468864303 242.66244894060534
0.3571005568072638 247.58325420414766
0.38016957056731415 249.28289292556985
0.3304648301204074 245.12397530045678
