# pressure (bar) temperature (K)
1000.000000 184.918870
1250.000000 206.763943
1500.000000 228.377792
1750.000000 248.471324
2000.000000 257.404237
2250.000000 262.977532
2500.000000 266.946906
2750.000000 270.289019
3000.000000 273.33333332738437
3250.000000 276.043973
3500.000000 278.487069
3750.000000 280.795659
4000.000000 282.899523
